time,position,velocity,acceleration,KE,PE,Total_E,F_spring,F_damping,F_total,analytical,error
0.0,1.0,0.0,-20.0,0.0,10.0,10.0,-20.0,-0.0,-20.0,1.0,0.0
0.1,0.9049166666666667,-1.8399166666666666,-16.258416666666665,1.692646670138889,8.188741736111112,9.88138840625,-18.098333333333333,1.8399166666666666,-16.258416666666665,0.904842665960761,7.400070590568575e-05
0.2,0.6496095065972223,-3.160677846875,-9.831512285069445,4.994942225863193,4.219925110614866,9.214867336478058,-12.992190131944445,3.160677846875,-9.831512285069445,0.649377119144111,0.0002323874531112713
0.30000000000000004,0.297073276923465,-3.76460822719317,-2.1768573112761302,7.086137552125251,0.8825253186204574,7.968662870745709,-5.9414655384693,3.76460822719317,-2.1768573112761302,0.296675383249496,0.00039789367396902975
0.4,-0.07750171152483276,-3.6069185306561597,5.156952761152815,6.5049306433953955,0.060065152892783955,6.564995796288179,1.5500342304966552,3.6069185306561597,5.156952761152815,-0.07799246272622654,0.0004907512013937743
0.5,-0.40195406644716886,-2.7895425269767156,10.828623855920092,3.89077375490582,1.6156707153341503,5.50644447023997,8.039081328943377,2.7895425269767156,10.828623855920092,-0.4024077353703591,0.00045366892319026464
0.6,-0.6203612233504793,-1.5281152495580972,13.935339716567682,1.1675681079660027,3.848480474369032,5.016048582335035,12.407224467009586,1.5281152495580972,13.935339716567682,-0.6206302766449743,0.00026905329449500304
0.7,-0.701955446176043,-0.1008237679038737,14.139932691424734,0.005082716087167097,4.927414484162076,4.9324972002492435,14.03910892352086,0.1008237679038737,14.139932691424734,-0.7019199281860609,3.551798998213673e-05
0.7999999999999999,-0.644486549050261,1.2095777832525143,11.680153197752706,0.7315392068690333,4.153629119067145,4.885168325936179,12.88973098100522,-1.2095777832525143,11.680153197752706,-0.6440922133676363,0.0003943356826247024
0.8999999999999999,-0.4719305035262643,2.1690925225831794,7.269517547942106,2.3524811857631303,2.2271840015855338,4.579665187348664,9.438610070525286,-2.1690925225831794,7.269517547942106,-0.47120978359658516,0.0007207199296791478
0.9999999999999999,-0.22751030395716695,2.6316132999817863,1.918592779161553,3.4626942803205134,0.517609384066825,3.980303664387338,4.550206079143339,-2.6316132999817863,1.918592779161553,-0.22658075492440644,0.0009295490327605183
1.0999999999999999,0.03621959265366806,2.557893276921468,-3.282285129994829,3.2714090080600227,0.013118588919976451,3.284527596979999,-0.7243918530733612,-2.557893276921468,-3.282285129994829,0.03717892253208464,0.0009593298784165843
1.2,0.268091236640303,2.012723702069369,-7.374548434875429,2.025528350435913,0.7187291116332694,2.7442574620691826,-5.36182473280606,-2.012723702069369,-7.374548434875429,0.26887959538570555,0.000788358745402562
1.3,0.42776242246471086,1.1429194946742123,-9.698167943968429,0.6531324856531784,1.8298069007287776,2.4829393863819558,-8.555248449294217,-1.1429194946742123,-9.698167943968429,0.42820358354789345,0.00044116108318259517
1.4000000000000001,0.492233176807491,0.1420558575769435,-9.986719393726764,0.010089933335960428,2.422935003499947,2.433024936835907,-9.84466353614982,-0.1420558575769435,-9.986719393726764,0.492217023776833,1.6153030657994893e-05
1.5000000000000002,0.45849855257705097,-0.7901878597730526,-8.379783191767967,0.31219842686635874,2.1022092271525077,2.4144076540188664,-9.169971051541019,0.7901878597730526,-8.379783191767967,0.4580082191414269,0.0004903334356240463
1.6000000000000003,0.34220899121981124,-1.485959301985652,-5.358220522410573,1.104037523578843,1.1710699367168085,2.2751074602956516,-6.844179824396225,1.485959301985652,-5.358220522410573,0.3413272739004436,0.0008817173193676475
1.7000000000000004,0.1729685553524058,-1.8376033004981123,-1.6217678065500039,1.6883929450007777,0.29918121140698267,1.9875741564077605,-3.459371107048116,1.8376033004981123,-1.6217678065500039,0.17186216769831786,0.001106387654087937
1.8000000000000005,-0.012529718417759711,-1.8120737341791564,2.0626681025343507,1.641805609050996,0.001569938436283469,1.6433755474872795,0.2505943683551942,1.8120737341791564,2.0626681025343507,-0.013644446534142237,0.0011147281163825257
1.9000000000000006,-0.1780415842621277,-1.4500188523048887,5.010850537547443,1.0512773360197933,0.31698805726568324,1.3682653932854767,3.560831685242554,1.4500188523048887,5.010850537547443,-0.17894387756262364,0.0009022933004959321
2.0000000000000004,-0.2945084896253689,-0.8511688555211072,6.741338648028485,0.3622442103045557,0.8673525046141604,1.2295967149187161,5.890169792507378,0.8511688555211072,6.741338648028485,-0.29501922611774306,0.0005107364923741531
2.1000000000000005,-0.34480962890786726,-0.1500618168010548,7.0462543949584,0.011259274430816665,1.1889368018758113,1.200196076306628,6.896192578157345,0.1500618168010548,7.0462543949584,-0.3448284175399913,1.8788632124067117e-05
2.2000000000000006,-0.3258290419140046,0.5124326058893061,6.0041482323907855,0.13129358778925243,1.0616456455459815,1.192939233335234,6.516580838280092,-0.5124326058893061,6.0041482323907855,-0.32535449130781463,0.0004745506061899496
2.3000000000000007,-0.24770646590605638,1.016065425708315,3.9380638924128126,0.5161944746599098,0.6135849325166828,1.1297794071765925,4.954129318121128,-1.016065425708315,3.9380638924128126,-0.24683563356385058,0.0008708323422058073
2.400000000000001,-0.13067992388026434,1.2817400076496432,1.3318584699556433,0.8214287236048537,0.1707724250535168,0.9922011486583706,2.6135984776052865,-1.2817400076496432,1.3318584699556433,-0.12958745398775048,0.0010924698925138532
2.500000000000001,-0.00033970099758057204,1.2823933250812507,-1.2755993051296393,0.8222663201064732,1.153967677572358e-06,0.8222674740741507,0.006794019951611441,-1.2823933250812507,-1.2755993051296393,0.0007585754515638518,0.001098276449144424
2.600000000000001,0.11766744150755995,1.0431092720132864,-3.3964581021644853,0.5440384766800441,0.13845626790935042,0.6824947445893945,-2.353348830151199,-1.0431092720132864,-3.3964581021644853,0.11855855406836217,0.0008911125608022236
2.700000000000001,0.20244093568080507,0.6314669719089827,-4.680285685525083,0.19937526830594998,0.4098233243931986,0.6091985926991486,-4.048818713616101,-0.6314669719089827,-4.680285685525083,0.202957223941545,0.0005162882607399333
2.800000000000001,0.24128450701639864,0.14085820545201888,-4.966548345779992,0.00992051702158158,0.5821821332614653,0.5921026502830469,-4.825690140327973,-0.14085820545201888,-4.966548345779992,0.24133584639275715,5.133937635851127e-05
2.9000000000000012,0.23130073979998575,-0.329436816110029,-4.296577979889686,0.05426430790435653,0.5350003223202071,0.5892646302245637,-4.626014795999715,0.329436816110029,-4.296577979889686,0.2308903018382679,0.00041043796171785774
3.0000000000000013,0.1790010800286149,-0.6933801372531686,-2.8866414633191293,0.24038800736861146,0.32041386651410597,0.5608018738827174,-3.580021600572298,0.6933801372531686,-2.8866414633191293,0.1782219654618752,0.0007791145667397081
3.1000000000000014,0.09819297712584113,-0.8930102294886092,-1.0708493130282135,0.39873363498564923,0.09641860756835959,0.4951522425540088,-1.9638595425168226,0.8930102294886092,-1.0708493130282135,0.09720704580490604,0.0009859313209350934
3.2000000000000015,0.006703241313796557,-0.9066135150945253,0.7725486888185942,0.41097403287602546,0.0004493344411098899,0.41142336731713536,-0.13406482627593114,0.9066135150945253,0.7725486888185942,0.005707018040369536,0.0009962232734270207
3.3000000000000016,-0.07733879104684037,-0.7493384196158469,2.2961142405526545,0.28075403355618755,0.05981288600586836,0.3405669195620559,1.5467758209368074,0.7493384196158469,2.2961142405526545,-0.07815384006946181,0.0008150490226214446
3.4000000000000017,-0.13892117335937948,-0.4668558818958649,3.2452793490834546,0.10897720723038289,0.19299092407546767,0.30196813130585054,2.7784234671875896,0.4668558818958649,3.2452793490834546,-0.13940586291471072,0.0004846895553312358
3.5000000000000018,-0.16866088102737015,-0.12391349034054316,3.4971311108879464,0.007677276544187942,0.28446492788928707,0.292142204433475,3.373217620547403,0.12391349034054316,3.4971311108879464,-0.16873573827012336,7.485724275321792e-05
3.600000000000002,-0.16402356706147125,0.20959010818806584,3.070881233041359,0.021964006725142572,0.2690373055156896,0.2910013122408322,3.280471341229425,-0.20959010818806584,3.070881233041359,-0.16369145027546983,0.000332116786001424
3.700000000000002,-0.12914624289885843,0.4721698601691846,2.110754997807984,0.11147218842609367,0.1667875205489094,0.2782597089750031,2.5829248579771686,-0.4721698601691846,2.110754997807984,-0.12848829602536121,0.0006579468734972116
3.800000000000002,-0.07342892787541103,0.6214550409506082,0.8471235165576122,0.19310318396146106,0.05391807448932314,0.2470212584507842,1.4685785575082204,-0.6214550409506082,0.8471235165576122,-0.07258540999721276,0.0008435178781982661
3.900000000000002,-0.009275786278472031,0.6402968579822026,-0.45478113241276197,0.20499003317094047,0.0008604021108389001,0.20585043528177938,0.18551572556944063,-0.6402968579822026,-0.45478113241276197,-0.008416236541109016,0.0008595497373630155
4.000000000000002,0.05051082943096039,0.5375773291418058,-1.5477939177610136,0.1444946924036187,0.02551343889803575,0.17000813130165446,-1.0102165886192078,-0.5375773291418058,-1.5477939177610136,0.05122173901130223,0.0007109095803418397
4.100000000000001,0.09516296577474129,0.3440720934698832,-2.2473314089647087,0.05919280275237403,0.09055990055044581,0.14975270330281984,-1.9032593154948256,-0.3440720934698832,-2.2473314089647087,0.09559699856240211,0.0004340327876608263
4.200000000000001,0.11776775274449944,0.10461144617190596,-2.4599665010618947,0.005471777335088789,0.13869243586489555,0.14416421319998435,-2.355355054889989,-0.10461144617190596,-2.4599665010618947,0.11785605686615368,8.830412165423962e-05
4.300000000000001,0.11619381942116624,-0.13164202707221265,-2.192234361351112,0.008664811645840584,0.1350100367167859,0.1436748483626265,-2.323876388423325,0.13164202707221265,-2.192234361351112,0.11593721677080848,0.0002566026503577623
4.4,0.09303520577567292,-0.3208014912658931,-1.5399026242475653,0.051456798399210434,0.08655549513721805,0.1380122935364285,-1.8607041155134585,0.3208014912658931,-1.5399026242475653,0.09250046778242524,0.0005347379932476859
4.5,0.05467670776958747,-0.4319632413078694,-0.6615709140838799,0.0932961209206003,0.029895423725208665,0.12319154464580896,-1.0935341553917493,0.4319632413078694,-0.6615709140838799,0.05398027550454389,0.0006964322650435811
4.6,0.009739045785677324,-0.4517525039970878,0.2569715882835413,0.1020401624338194,0.0009484901281551924,0.10298865256197459,-0.19478091571354647,0.4517525039970878,0.2569715882835413,0.009022023750068449,0.0007170220356088747
4.699999999999999,-0.032746323216742916,-0.38515805466823005,1.0400845190030883,0.07417336353790764,0.010723216842153962,0.0848965803800616,0.6549264643348583,0.38515805466823005,1.0400845190030883,-0.03334657903466893,0.0006002558179260126
4.799999999999999,-0.06506562985513366,-0.25285250090740424,1.5541650980100774,0.031967193607564434,0.04233536188445261,0.07430255549201704,1.301312597102673,0.25285250090740424,1.5541650980100774,-0.06544164114814656,0.00037601129301290115
4.899999999999999,-0.08214034941446877,-0.08583372895043984,1.7286407172398153,0.003683714512768787,0.0674703700193102,0.07115408453207898,1.6428069882893754,0.08583372895043984,1.7286407172398153,-0.08223343648133602,9.308706686725343e-05
4.999999999999998,-0.08222651661387953,0.08135537142700566,1.563174960850585,0.003309348230013025,0.06761200034452607,0.07092134857453909,1.6445303322775906,-0.08135537142700566,1.563174960850585,-0.08203526460814108,0.00019125200573845424
5.099999999999998,-0.06692379013527291,0.21742541469640483,1.1210503880090537,0.023636905477951806,0.044787936860700525,0.06842484233865233,1.3384758027054584,-0.21742541469640483,1.1210503880090537,-0.06650102743102561,0.00042276270424730644
5.1999999999999975,-0.040558220877069374,0.2998838461692379,0.5112805713721496,0.04496516059662757,0.01644969280713146,0.06141485340375903,0.8111644175413875,-0.2998838461692379,0.5112805713721496,-0.039997760289870114,0.0005604605871992602
5.299999999999997,-0.009113745710463847,0.31840557269316994,-0.136130658483893,0.050691054361032765,0.0008306036087499817,0.051521657969782746,0.18227491420927694,-0.31840557269316994,-0.136130658483893,-0.00853004476587908,0.0005837009445847675
5.399999999999997,0.021044805608724838,0.27560705612015324,-0.69650316829465,0.03797962469160865,0.004428838431090164,0.04240846312269881,-0.42089611217449674,-0.27560705612015324,-0.69650316829465,0.021539730042516487,0.0004949244337916492
5.4999999999999964,0.04439849614241552,0.18532602914748875,-1.0732959519957992,0.017172868539787924,0.019712264597080857,0.03688513313686878,-0.8879699228483104,-0.18532602914748875,-1.0732959519957992,0.04471629550766837,0.00031779936525284935
5.599999999999996,0.05722616162398836,0.06896585702556815,-1.2134890895053354,0.002378144717635554,0.03274833574214838,0.035126480459783935,-1.1445232324797672,-0.06896585702556815,-1.2134890895053354,0.05731756115984229,9.139953585392963e-05
5.699999999999996,0.05812947891152213,-0.04922758657656419,-1.1133619916538784,0.0012116776400765614,0.03379036318525096,0.03500204082532752,-1.1625895782304425,0.04922758657656419,-1.1133619916538784,0.057991262052835967,0.0001382168586861604
5.799999999999995,0.04807360144158506,-0.14697152777676747,-0.8145005010549338,0.010800314988518567,0.02311071155564369,0.033911026544162254,-0.9614720288317012,0.14697152777676747,-0.8145005010549338,0.047746356301137036,0.00032724514044802505
5.899999999999995,0.029981834997084143,-0.207927637355626,-0.39170906258605687,0.02161695118814636,0.008989104297923796,0.030606055486070156,-0.5996366999416829,0.207927637355626,-0.39170906258605687,0.029539473591435092,0.0004423614056490513
5.999999999999995,0.008002585914549446,-0.2241927861405517,0.06414106784956278,0.025131202678731573,0.0006404138131974519,0.025771616491929026,-0.1600517182909889,0.2241927861405517,0.06414106784956278,0.007536163531356193,0.00046642238319325336
6.099999999999994,-0.01338312881781413,-0.1969750777373105,0.4646376540935931,0.019399590624809754,0.0017910813695420705,0.021190671994351824,0.2676625763562826,0.1969750777373105,0.4646376540935931,-0.013783833678469722,0.0004007048606555919
6.199999999999994,-0.03023150274172896,-0.13550130257606938,0.7401313574106486,0.009180301499905752,0.009139437580231656,0.01831973908013741,0.6046300548345792,0.13550130257606938,0.7401313574106486,-0.030494980340931708,0.000263477599202748
6.299999999999994,-0.039822545937607215,-0.05452838605500432,0.8509793048071486,0.0014866724428817947,0.01585835164952837,0.017345024092410163,0.7964509187521442,0.05452838605500432,0.8509793048071486,-0.03990796315720483,8.541721959761522e-05
6.399999999999993,-0.04105246984349156,0.028942904947546658,0.7921064919222846,0.0004188458734013604,0.016853052802507842,0.0172718986759092,0.8210493968698312,-0.028942904947546658,0.7921064919222846,-0.04095542225919636,9.704758429520538e-05
6.499999999999993,-0.034486437509469225,0.09906141388191793,0.5906673363074666,0.004906581860142321,0.011893143720945258,0.01679972558108758,0.6897287501893845,-0.09906141388191793,0.5906673363074666,-0.034237384667841944,0.00024905284162728136
6.5999999999999925,-0.02209411475503192,0.1439812582716979,0.29790103682894054,0.010365301366750686,0.004881499068085192,0.015246800434835877,0.4418822951006384,-0.1439812582716979,0.29790103682894054,-0.021750281590005544,0.00034383316502637623
6.699999999999992,-0.0067476568379875625,0.1576966944316397,-0.02274355767188846,0.01243412371733297,0.0004553087280324031,0.012889432445365374,0.13495313675975124,-0.1576966944316397,-0.02274355767188846,-0.006380381631796305,0.0003672752061912579
6.799999999999992,0.008401371684508474,0.1406100545284412,-0.3086374882186107,0.009885593717245603,0.0007058304618126074,0.010591424179058211,-0.16802743369016948,-0.1406100545284412,-0.3086374882186107,0.008721124809238992,0.0003197531247305183
6.8999999999999915,0.020538080401562513,0.09884701891711731,-0.5096086269483676,0.004885366574400474,0.004218127465810462,0.009103494040210935,-0.4107616080312503,-0.09884701891711731,-0.5096086269483676,0.020753159218933795,0.00021507881737128226
6.999999999999991,0.027678765134509915,0.04256644455844388,-0.5961417472486421,0.0009059511011735384,0.007661140393713617,0.008567091494887154,-0.5535753026901983,-0.04256644455844388,-0.5961417472486421,0.02775572837144358,7.696323693366647e-05
7.099999999999991,0.028962911422161442,-0.01632347170124969,-0.5629347567419791,0.00013322786419074973,0.008388502380479697,0.008521730244670447,-0.5792582284432288,0.01632347170124969,-0.5629347567419791,0.02889674557324942,6.616584891202051e-05
7.19999999999999,0.02470732987905471,-0.0665590336590982,-0.42758756392199604,0.0022150524808164833,0.006104521497524297,0.00831957397834078,-0.49414659758109425,0.0665590336590982,-0.42758756392199604,0.02452044172033375,0.00018688815872095962
7.29999999999999,0.016234920829057805,-0.09956665314131957,-0.22513176343983654,0.004956759208881921,0.00263572654325775,0.007592485752139671,-0.3246984165811561,0.09956665314131957,-0.22513176343983654,0.015970992573662895,0.00026392825539491016
7.39999999999999,0.005531533212281581,-0.11081070805924972,0.00018004381361810817,0.0061395065102961355,0.0003059785967857419,0.006445485107081877,-0.11063066424563162,0.11081070805924972,0.00018004381361810817,0.005245765765114029,0.00028576744716755226
7.499999999999989,-0.005188546834153585,-0.10025789328727909,0.2040288299703508,0.0050258225832017205,0.0002692101825020519,0.005295032765703773,0.1037709366830717,0.10025789328727909,0.2040288299703508,-0.0054406952614090565,0.00025214842725547124
7.599999999999989,-0.013918510947213794,-0.07195523636339958,0.35032545530767545,0.0025887780200563506,0.0019372494698771021,0.0045260274899334525,0.2783702189442759,0.07195523636339958,0.35032545530767545,-0.014091844706581416,0.00017333375936762208
7.699999999999989,-0.01921467446326413,-0.03288501044027064,0.41717849970555326,0.0005407119558283544,0.0036920371472921464,0.004232749103120501,0.3842934892652826,0.03288501044027064,0.41717849970555326,-0.019282092004628024,6.741754136389486e-05
7.799999999999988,-0.02041296310601016,0.008620489698253887,0.39963877242194934,3.71564213188507e-05,0.00416689062767332,0.00420404704899217,0.40825926212020325,-0.008620489698253887,0.39963877242194934,-0.02036930269750333,4.366040850682998e-05
7.899999999999988,-0.01767898139714808,0.04456592670404583,0.3090137012389158,0.0009930609114951925,0.0031254638324070792,0.0041185247439022715,0.3535796279429616,-0.04456592670404583,0.3090137012389158,-0.017540434036215278,0.00013854736093280376
7.999999999999988,-0.011898125350558304,0.06875642279682789,0.16920608421433816,0.002363722837908077,0.0014156538685759818,0.003779376706484059,0.23796250701116606,-0.06875642279682789,0.16920608421433816,-0.01169764281073071,0.00020048253982759418
8.099999999999987,-0.004441507519596206,0.07778508765159772,0.011045062740326406,0.0030252599304833702,0.00019726989046629643,0.0032225298209496668,0.08883015039192413,-0.07778508765159772,0.011045062740326406,-0.004221364212812831,0.00022014330678337551
8.199999999999987,0.0031367097798071742,0.07140512198507358,-0.13413931758121705,0.002549345722851619,9.838948242737972e-05,0.0026477352052789987,-0.06273419559614349,-0.07140512198507358,-0.13413931758121705,0.0033335848776036197,0.00019687509779644542
8.299999999999986,0.009407434659529007,0.05227542666601079,-0.24042411985659093,0.0013663601165567359,0.0008849982687330764,0.0022513583852898124,-0.18814869319058014,-0.05227542666601079,-0.24042411985659093,0.009545622845629022,0.00013818818610001476
